freq_energy,cross_sect
420.0,5.984378813314919e-16
420.1,5.997843820820643e-16
420.20000000000005,6.01135418824912e-16
420.30000000000007,6.024910118952167e-16
420.4000000000001,6.038511817418928e-16
420.5000000000001,6.052159489283487e-16
420.60000000000014,6.065853341332547e-16
420.70000000000016,6.07959358151317e-16
420.8000000000002,6.093380418940571e-16
420.9000000000002,6.107214063905978e-16
421.0000000000002,6.12109472788455e-16
421.10000000000025,6.135022623543363e-16
421.2000000000003,6.148997964749451e-16
421.3000000000003,6.163020966577917e-16
421.4000000000003,6.177091845320103e-16
421.50000000000034,6.191210818491829e-16
421.60000000000036,6.205378104841687e-16
421.7000000000004,6.219593924359418e-16
421.8000000000004,6.233858498284335e-16
421.90000000000043,6.248172049113832e-16
422.00000000000045,6.262534800611938e-16
422.1000000000005,6.276946977817967e-16
422.2000000000005,6.291408807055208e-16
422.3000000000005,6.305920515939704e-16
422.40000000000055,6.320482333389094e-16
422.50000000000057,6.335094489631521e-16
422.6000000000006,6.349757216214624e-16
422.7000000000006,6.364470746014583e-16
422.80000000000064,6.379235313245251e-16
422.90000000000066,6.394051153467359e-16
423.0000000000007,6.408918503597785e-16
423.1000000000007,6.423837601918901e-16
423.2000000000007,6.438808688088002e-16
423.30000000000075,6.453832003146799e-16
423.4000000000008,6.468907789531004e-16
423.5000000000008,6.484036291079971e-16
423.6000000000008,6.499217753046434e-16
423.70000000000084,6.514452422106316e-16
423.80000000000086,6.529740546368615e-16
423.9000000000009,6.54508237538537e-16
424.0000000000009,6.560478160161719e-16
424.10000000000093,6.575928153166017e-16
424.20000000000095,6.591432608340058e-16
424.300000000001,6.606991781109368e-16
424.400000000001,6.622605928393582e-16
424.500000000001,6.638275308616911e-16
424.60000000000105,6.654000181718688e-16
424.70000000000107,6.669780809164006e-16
424.8000000000011,6.685617453954441e-16
424.9000000000011,6.701510380638856e-16
425.00000000000114,6.717459855324305e-16
425.10000000000116,6.733466145687019e-16
425.2000000000012,6.749529520983485e-16
425.3000000000012,6.765650252061609e-16
425.4000000000012,6.781828611371983e-16
425.50000000000125,6.798064872979238e-16
425.6000000000013,6.814359312573489e-16
425.7000000000013,6.830712207481876e-16
425.8000000000013,6.847123836680201e-16
425.90000000000134,6.863594480804664e-16
426.00000000000136,6.880124422163691e-16
426.1000000000014,6.896713944749863e-16
426.2000000000014,6.913363334251942e-16
426.30000000000143,6.930072878067e-16
426.40000000000146,6.946842865312649e-16
426.5000000000015,6.963673586839364e-16
426.6000000000015,6.980565335242928e-16
426.7000000000015,6.997518404876956e-16
426.80000000000155,7.014533091865546e-16
426.90000000000157,7.031609694116023e-16
427.0000000000016,7.048748511331788e-16
427.1000000000016,7.065949845025294e-16
427.20000000000164,7.083213998531101e-16
427.30000000000166,7.100541277019067e-16
427.4000000000017,7.117931987507634e-16
427.5000000000017,7.135386438877238e-16
427.6000000000017,7.152904941883818e-16
427.70000000000175,7.170487809172455e-16
427.8000000000018,7.188135355291113e-16
427.9000000000018,7.2058478967045e-16
428.0000000000018,7.223625751808055e-16
428.10000000000184,7.241469240942045e-16
428.20000000000186,7.259378686405773e-16
428.3000000000019,7.277354412471937e-16
428.4000000000019,7.295396745401074e-16
428.50000000000193,7.313506013456152e-16
428.60000000000196,7.331682546917284e-16
428.700000000002,7.349926678096554e-16
428.800000000002,7.368238741352987e-16
428.900000000002,7.386619073107634e-16
429.00000000000205,7.405068011858797e-16
429.10000000000207,7.42358589819737e-16
429.2000000000021,7.442173074822338e-16
429.3000000000021,7.460829886556373e-16
429.40000000000214,7.479556680361599e-16
429.50000000000216,7.498353805355474e-16
429.6000000000022,7.5172216128268095e-16
429.7000000000022,7.536160456251938e-16
429.8000000000022,7.555170691311012e-16
429.90000000000225,7.574252675904447e-16
430.0000000000023,7.593406770169512e-16
430.1000000000023,7.612633336497054e-16
430.2000000000023,7.631932739548372e-16
430.30000000000234,7.651305346272251e-16
430.40000000000236,7.670751525922124e-16
430.5000000000024,7.690271650073393e-16
430.6000000000024,7.709866092640905e-16
430.70000000000243,7.729535229896579e-16
430.80000000000246,7.74927944048718e-16
430.9000000000025,7.769099105452259e-16
431.0000000000025,7.78899460824225e-16
431.1000000000025,7.808966334736713e-16
431.20000000000255,7.829014673262762e-16
431.30000000000257,7.849140014613626e-16
431.4000000000026,7.869342752067396e-16
431.5000000000026,7.889623281405932e-16
431.60000000000264,7.909982000933933e-16
431.70000000000266,7.930419311498182e-16
431.8000000000027,7.950935616506951e-16
431.9000000000027,7.9715313219496e-16
432.00000000000273,7.992206836416315e-16
432.10000000000275,8.012962571118065e-16
432.2000000000028,8.033798939906704e-16
432.3000000000028,8.054716359295262e-16
432.4000000000028,8.075715248478421e-16
432.50000000000284,8.096796029353177e-16
432.60000000000286,8.117959126539669e-16
432.7000000000029,8.139204967402225e-16
432.8000000000029,8.160533982070563e-16
432.90000000000293,8.181946603461212e-16
433.00000000000296,8.203443267299106e-16
433.100000000003,8.225024412139384e-16
433.200000000003,8.246690479389382e-16
433.300000000003,8.26844191333082e-16
433.40000000000305,8.290279161142203e-16
433.50000000000307,8.312202672921407e-16
433.6000000000031,8.334212901708487e-16
433.7000000000031,8.356310303508677e-16
433.80000000000314,8.378495337315613e-16
433.90000000000316,8.400768465134759e-16
434.0000000000032,8.423130152007038e-16
434.1000000000032,8.445580866032712e-16
434.20000000000323,8.46812107839543e-16
434.30000000000325,8.490751263386546e-16
434.4000000000033,8.513471898429624e-16
434.5000000000033,8.536283464105185e-16
434.6000000000033,8.55918644417568e-16
434.70000000000334,8.582181325610686e-16
434.80000000000337,8.605268598612336e-16
434.9000000000034,8.628448756640991e-16
435.0000000000034,8.651722296441146e-16
435.10000000000343,8.675089718067559e-16
435.20000000000346,8.698551524911647e-16
435.3000000000035,8.722108223728123e-16
435.4000000000035,8.745760324661848e-16
435.5000000000035,8.769508341274982e-16
435.60000000000355,8.793352790574347e-16
435.70000000000357,8.817294193039071e-16
435.8000000000036,8.841333072648466e-16
435.9000000000036,8.865469956910198e-16
436.00000000000364,8.889705376888685e-16
436.10000000000366,8.914039867233784e-16
436.2000000000037,8.938473966209747e-16
436.3000000000037,8.96300821572443e-16
436.40000000000373,8.9876431613588e-16
436.50000000000375,9.01237935239671e-16
436.6000000000038,9.03721734185494e-16
436.7000000000038,9.062157686513545e-16
436.8000000000038,9.087200946946484e-16
436.90000000000384,9.112347687552524e-16
437.00000000000387,9.137598476586448e-16
437.1000000000039,9.162953886190567e-16
437.2000000000039,9.188414492426516e-16
437.30000000000393,9.213980875307355e-16
437.40000000000396,9.239653618829985e-16
437.500000000004,9.265433311007868e-16
437.600000000004,9.291320543904054e-16
437.700000000004,9.317315913664526e-16
437.80000000000405,9.343420020551883e-16
437.90000000000407,9.36963346897931e-16
438.0000000000041,9.395956867544895e-16
438.1000000000041,9.422390829066285e-16
438.20000000000414,9.448935970615663e-16
438.30000000000416,9.475592913555055e-16
438.4000000000042,9.50236228357199e-16
438.5000000000042,9.5292447107155e-16
438.60000000000423,9.556240829432475e-16
438.70000000000425,9.58335127860435e-16
438.8000000000043,9.61057670158418e-16
438.9000000000043,9.637917746234036e-16
439.0000000000043,9.665375064962806e-16
439.10000000000434,9.692949314764326e-16
439.20000000000437,9.72064115725591e-16
439.3000000000044,9.748451258717244e-16
439.4000000000044,9.77638029012966e-16
439.50000000000443,9.804428927215803e-16
439.60000000000446,9.832597850479672e-16
439.7000000000045,9.860887745247068e-16
439.8000000000045,9.889299301706437e-16
439.9000000000045,9.917833214950108e-16
440.00000000000455,9.94649018501594e-16
440.10000000000457,9.975270916929383e-16
440.2000000000046,1.000417612074596e-15
440.3000000000046,1.003320651159415e-15
440.40000000000464,1.0062362809718721e-15
440.50000000000466,1.009164574052447e-15
440.6000000000047,1.0121056034620413e-15
440.7000000000047,1.0150594427864412e-15
440.80000000000473,1.0180261661408234e-15
440.90000000000475,1.0210058481743084e-15
441.0000000000048,1.0239985640745564e-15
441.1000000000048,1.027004389572412e-15
441.2000000000048,1.0300234009465926e-15
441.30000000000484,1.0330556750284259e-15
441.40000000000487,1.0361012892066345e-15
441.5000000000049,1.0391603214321683e-15
441.6000000000049,1.0422328502230864e-15
441.70000000000493,1.0453189546694856e-15
441.80000000000496,1.0484187144384827e-15
441.900000000005,1.051532209779244e-15
442.000000000005,1.0546595215280667e-15
442.100000000005,1.0578007311135135e-15
442.20000000000505,1.0609559205615951e-15
442.30000000000507,1.0641251725010112e-15
442.4000000000051,1.0673085701684384e-15
442.5000000000051,1.070506197413879e-15
442.60000000000514,1.0737181387060578e-15
442.70000000000516,1.0769444791378785e-15
442.8000000000052,1.0801853044319341e-15
442.9000000000052,1.0834407009460748e-15
443.00000000000523,1.0867107556790317e-15
443.10000000000525,1.0899955562761e-15
443.2000000000053,1.0932951910348791e-15
443.3000000000053,1.0966097489110727e-15
443.4000000000053,1.0999393195243492e-15
443.50000000000534,1.1032839931642622e-15
443.60000000000537,1.1066438607962315e-15
443.7000000000054,1.1100190140675881e-15
443.8000000000054,1.1134095453136793e-15
443.90000000000543,1.1168155475640408e-15
444.00000000000546,1.1202371145486291e-15
444.1000000000055,1.1236743407041214e-15
444.2000000000055,1.127127321180282e-15
444.3000000000055,1.1305961518463918e-15
444.40000000000555,1.1340809292977492e-15
444.50000000000557,1.1375817508622357e-15
444.6000000000056,1.141098714606954e-15
444.7000000000056,1.1446319193449316e-15
444.80000000000564,1.1481814646418991e-15
444.90000000000566,1.1517474508231374e-15
445.0000000000057,1.1553299789803983e-15
445.1000000000057,1.1589291509788981e-15
445.20000000000573,1.1625450694643846e-15
445.30000000000575,1.166177837870281e-15
445.4000000000058,1.1698275604249023e-15
445.5000000000058,1.173494342158753e-15
445.6000000000058,1.1771782889118972e-15
445.70000000000584,1.1808795073414132e-15
445.80000000000587,1.1845981049289218e-15
445.9000000000059,1.1883341899882e-15
446.0000000000059,1.192087871672874e-15
446.10000000000593,1.1958592599841944e-15
446.20000000000596,1.199648465778896e-15
446.300000000006,1.2034556007771414e-15
446.400000000006,1.2072807775705518e-15
446.500000000006,1.2111241096303221e-15
446.60000000000605,1.214985711315424e-15
446.70000000000607,1.2188656978809013e-15
446.8000000000061,1.2227641854862511e-15
446.9000000000061,1.226681291203896e-15
447.00000000000614,1.2306171330277529e-15
447.10000000000616,1.2345718298818897e-15
447.2000000000062,1.2385455016292792e-15
447.3000000000062,1.2425382690806489e-15
447.40000000000623,1.246550254003425e-15
447.50000000000625,1.2505815791307792e-15
447.6000000000063,1.2546323681707676e-15
447.7000000000063,1.2587027458155773e-15
447.8000000000063,1.2627928377508698e-15
447.90000000000634,1.2669027706652293e-15
448.00000000000637,1.2710326722597147e-15
448.1000000000064,1.2751826712575177e-15
448.2000000000064,1.2793528974137269e-15
448.30000000000643,1.283543481525201e-15
448.40000000000646,1.2877545554405499e-15
448.5000000000065,1.2919862520702307e-15
448.6000000000065,1.2962387053967499e-15
448.7000000000065,1.3005120504849857e-15
448.80000000000655,1.3048064234926202e-15
448.90000000000657,1.3091219616806925e-15
449.0000000000066,1.3134588034242678e-15
449.1000000000066,1.3178170882232246e-15
449.20000000000664,1.3221969567131685e-15
449.30000000000666,1.326598550676461e-15
449.4000000000067,1.3310220130533801e-15
449.5000000000067,1.3354674879534018e-15
449.60000000000673,1.3399351206666113e-15
449.70000000000675,1.3444250576752418e-15
449.8000000000068,1.3489374466653468e-15
449.9000000000068,1.3534724365386007e-15
450.0000000000068,1.3580301774242387e-15
450.10000000000684,1.3626108206911267e-15
450.20000000000687,1.3672145189599762e-15
450.3000000000069,1.3718414261156899e-15
450.4000000000069,1.3764916973198558e-15
450.50000000000693,1.3811654890233825e-15
450.60000000000696,1.3858629589792758e-15
450.700000000007,1.3905842662555674e-15
450.800000000007,1.3953295712483884e-15
450.900000000007,1.4000990356951967e-15
451.00000000000705,1.4048928226881539e-15
451.10000000000707,1.4097110966876594e-15
451.2000000000071,1.4145540235360384e-15
451.3000000000071,1.4194217704713929e-15
451.40000000000714,1.4243145061416094e-15
451.50000000000716,1.429232400618531e-15
451.6000000000072,1.4341756254122961e-15
451.7000000000072,1.4391443534858422e-15
451.80000000000723,1.4441387592695795e-15
451.90000000000725,1.4491590186762386e-15
452.0000000000073,1.4542053091158886e-15
452.1000000000073,1.4592778095111345e-15
452.2000000000073,1.464376700312492e-15
452.30000000000734,1.4695021635139434e-15
452.40000000000737,1.4746543826686776e-15
452.5000000000074,1.4798335429050148e-15
452.6000000000074,1.4850398309425217e-15
452.70000000000744,1.490273435108316e-15
452.80000000000746,1.4955345453535634e-15
452.9000000000075,1.5008233532701746e-15
453.0000000000075,1.5061400521076975e-15
453.1000000000075,1.5114848367904129e-15
453.20000000000755,1.5168579039346315e-15
453.30000000000757,1.522259451866203e-15
453.4000000000076,1.5276896806382291e-15
453.5000000000076,1.5331487920489947e-15
453.60000000000764,1.5386369896601093e-15
453.70000000000766,1.544154478814871e-15
453.8000000000077,1.5497014666568507e-15
453.9000000000077,1.5552781621486978e-15
454.00000000000773,1.5608847760911804e-15
454.10000000000775,1.5665215211424473e-15
454.2000000000078,1.572188611837532e-15
454.3000000000078,1.577886264608087e-15
454.4000000000078,1.5836146978023645e-15
454.50000000000784,1.5893741317054351e-15
454.60000000000787,1.5951647885596575e-15
454.7000000000079,1.600986892585397e-15
454.8000000000079,1.606840670001998e-15
454.90000000000794,1.612726349049014e-15
455.00000000000796,1.6186441600076972e-15
455.100000000008,1.6245943352227574e-15
455.200000000008,1.6305771091243826e-15
455.300000000008,1.636592718250536e-15
455.40000000000805,1.642641401269529e-15
455.5000000000081,1.6487233990028698e-15
455.6000000000081,1.6548389544484029e-15
455.7000000000081,1.660988312803727e-15
455.80000000000814,1.6671717214899142e-15
455.90000000000816,1.6733894301755165e-15
456.0000000000082,1.6796416908008783e-15
456.1000000000082,1.685928757602751e-15
456.20000000000823,1.6922508871392143e-15
456.30000000000825,1.698608338314915e-15
456.4000000000083,1.7050013724066173e-15
456.5000000000083,1.7114302530890801e-15
456.6000000000083,1.717895246461259e-15
456.70000000000834,1.7243966210728374e-15
456.80000000000837,1.7309346479510971e-15
456.9000000000084,1.7375096006281267e-15
457.0000000000084,1.7441217551683777e-15
457.10000000000844,1.7507713901965686e-15
457.20000000000846,1.7574587869259479e-15
457.3000000000085,1.7641842291869142e-15
457.4000000000085,1.7709480034560068e-15
457.5000000000085,1.7777503988852615e-15
457.60000000000855,1.7845917073319483e-15
457.7000000000086,1.7914722233886904e-15
457.8000000000086,1.7983922444139675e-15
457.9000000000086,1.8053520705630144e-15
458.00000000000864,1.812352004819121e-15
458.10000000000866,1.8193923530253334e-15
458.2000000000087,1.8264734239165674e-15
458.3000000000087,1.8335955291521395e-15
458.40000000000873,1.840758983348719e-15
458.50000000000875,1.8479641041137102e-15
458.6000000000088,1.855211212079071e-15
458.7000000000088,1.8625006309355737e-15
458.8000000000088,1.869832687467508e-15
458.90000000000884,1.8772077115878492e-15
459.00000000000887,1.884626036373881e-15
459.1000000000089,1.892087998103289e-15
459.2000000000089,1.8995939362907293e-15
459.30000000000894,1.907144193724881e-15
459.40000000000896,1.914739116505986e-15
459.500000000009,1.922379054083891e-15
459.600000000009,1.930064359296589e-15
459.700000000009,1.9377953884092727e-15
459.80000000000905,1.945572501153915e-15
459.9000000000091,1.9533960607693694e-15
460.0000000000091,1.961266434042009e-15
460.1000000000091,1.9691839913469092e-15
460.20000000000914,1.977149106689584e-15
460.30000000000916,1.985162157748279e-15
460.4000000000092,1.9932235259168376e-15
460.5000000000092,2.00133359634814e-15
460.60000000000923,2.0094927579981335e-15
460.70000000000925,2.017701403670453e-15
460.8000000000093,2.0259599300616494e-15
460.9000000000093,2.034268737807031e-15
461.0000000000093,2.042628231527126e-15
461.10000000000935,2.051038819874778e-15
461.20000000000937,2.059500915582887e-15
461.3000000000094,2.0680149355127976e-15
461.4000000000094,2.076581300703352e-15
461.50000000000944,2.0852004364206154e-15
461.60000000000946,2.0938727722082837e-15
461.7000000000095,2.1025987419387844e-15
461.8000000000095,2.111378783865081e-15
461.9000000000095,2.1202133406731957e-15
462.00000000000955,2.1291028595354525e-15
462.1000000000096,2.1380477921644636e-15
462.2000000000096,2.1470485948678626e-15
462.3000000000096,2.156105728603795e-15
462.40000000000964,2.1652196590371887e-15
462.50000000000966,2.1743908565968044e-15
462.6000000000097,2.18361979653308e-15
462.7000000000097,2.1929069589767943e-15
462.80000000000973,2.202252828998545e-15
462.90000000000975,2.211657896669065e-15
463.0000000000098,2.2211226571203863e-15
463.1000000000098,2.2306476106078695e-15
463.2000000000098,2.2402332625731037e-15
463.30000000000985,2.2498801237077024e-15
463.40000000000987,2.2595887100179994e-15
463.5000000000099,2.2693595428906592e-15
463.6000000000099,2.2791931491592357e-15
463.70000000000994,2.2890900611716567e-15
463.80000000000996,2.2990508168586936e-15
463.90000000001,2.309075959803392e-15
464.00000000001,2.3191660393115103e-15
464.10000000001,2.3293216104829602e-15
464.20000000001005,2.3395432342842787e-15
464.3000000000101,2.34983147762214e-15
464.4000000000101,2.360186913417934e-15
464.5000000000101,2.3706101206834108e-15
464.60000000001014,2.381101684597437e-15
464.70000000001016,2.391662196583848e-15
464.8000000000102,2.4022922543904442e-15
464.9000000000102,2.4129924621691294e-15
465.00000000001023,2.4237634305572217e-15
465.10000000001025,2.4346057767599486e-15
465.2000000000103,2.4455201246341527e-15
465.3000000000103,2.456507104773223e-15
465.4000000000103,2.467567354593271e-15
465.50000000001035,2.478701518420579e-15
465.60000000001037,2.489910247580335e-15
465.7000000000104,2.5011942004866766e-15
465.8000000000104,2.512554042734068e-15
465.90000000001044,2.523990447190032e-15
466.00000000001046,2.535504094089254e-15
466.1000000000105,2.5470956711290957e-15
466.2000000000105,2.5587658735665166e-15
466.3000000000105,2.570515404316457e-15
466.40000000001055,2.582344974051681e-15
466.5000000000106,2.594255301304123e-15
466.6000000000106,2.6062471125677476e-15
466.7000000000106,2.618321142402963e-15
466.80000000001064,2.630478133542602e-15
466.90000000001066,2.6427188369995043e-15
467.0000000000107,2.655044012175723e-15
467.1000000000107,2.667454426973386e-15
467.20000000001073,2.679950857907243e-15
467.30000000001075,2.6925340902189133e-15
467.4000000000108,2.7052049179928824e-15
467.5000000000108,2.717964144274265e-15
467.6000000000108,2.7308125811883636e-15
467.70000000001085,2.743751050062065e-15
467.80000000001087,2.7567803815470893e-15
467.9000000000109,2.769901415745142e-15
468.0000000000109,2.7831150023349844e-15
468.10000000001094,2.7964220007014703e-15
468.20000000001096,2.8098232800665698e-15
468.300000000011,2.8233197196224263e-15
468.400000000011,2.8369122086664707e-15
468.500000000011,2.8506016467386434e-15
468.60000000001105,2.86438894376074e-15
468.7000000000111,2.878275020177939e-15
468.8000000000111,2.8922608071025356e-15
468.9000000000111,2.9063472464599245e-15
469.00000000001114,2.9205352911368736e-15
469.10000000001116,2.9348259051321196e-15
469.2000000000112,2.9492200637093445e-15
469.3000000000112,2.9637187535525493e-15
469.40000000001123,2.9783229729238933e-15
469.50000000001125,2.9930337318240205e-15
469.6000000000113,3.007852052154936e-15
469.7000000000113,3.0227789678854595e-15
469.8000000000113,3.0378155252193153e-15
469.90000000001135,3.052962782765901e-15
470.00000000001137,3.0682218117137822e-15
470.1000000000114,3.083593696006958e-15
470.2000000000114,3.099079532523955e-15
470.30000000001144,3.114680431259796e-15
470.40000000001146,3.1303975155108918e-15
470.5000000000115,3.1462319220629114e-15
470.6000000000115,3.1621848013816902e-15
470.7000000000115,3.178257317807218e-15
470.80000000001155,3.1944506497507724e-15
470.9000000000116,3.210765989895249e-15
471.0000000000116,3.2272045453987554e-15
471.1000000000116,3.2437675381015087e-15
471.20000000001164,3.260456204736121e-15
471.30000000001166,3.2772717971413134e-15
471.4000000000117,3.2942155824791375e-15
471.5000000000117,3.311288843455751e-15
471.60000000001173,3.32849287854583e-15
471.70000000001176,3.3458290022206714e-15
471.8000000000118,3.3632985451800614e-15
471.9000000000118,3.38090285458797e-15
472.0000000000118,3.398643294312153e-15
472.10000000001185,3.4165212451677236e-15
472.20000000001187,3.4345381051647737e-15
472.3000000000119,3.452695289760111e-15
472.4000000000119,3.4709942321132022e-15
472.50000000001194,3.489436383346382e-15
472.60000000001196,3.508023212809424e-15
472.700000000012,3.5267562083485406e-15
472.800000000012,3.5456368765799053e-15
472.900000000012,3.564666743167773e-15
473.00000000001205,3.5838473531072905e-15
473.1000000000121,3.603180271012078e-15
473.2000000000121,3.622667081406678e-15
473.3000000000121,3.642309389023962e-15
473.40000000001214,3.662108819107575e-15
473.50000000001216,3.682067017719534e-15
473.6000000000122,3.702185652053058e-15
473.7000000000122,3.722466410750743e-15
473.80000000001223,3.7429110042281695e-15
473.90000000001226,3.763521165003055e-15
474.0000000000123,3.784298648030051e-15
474.1000000000123,3.805245231041293e-15
474.2000000000123,3.826362714892817e-15
474.30000000001235,3.8476529239169425e-15
474.40000000001237,3.869117706280745e-15
474.5000000000124,3.890758934350739e-15
474.6000000000124,3.912578505063865e-15
474.70000000001244,3.934578340304937e-15
474.80000000001246,3.956760387290641e-15
474.9000000000125,3.979126618960236e-15
475.0000000000125,4.001679034373058e-15
475.1000000000125,4.0244196591129875e-15
475.20000000001255,4.047350545699996e-15
475.3000000000126,4.070473774008908e-15
475.4000000000126,4.0937914516955196e-15
475.5000000000126,4.11730571463023e-15
475.60000000001264,4.1410187273393006e-15
475.70000000001266,4.164932683453918e-15
475.8000000000127,4.1890498061671936e-15
475.9000000000127,4.21337234869927e-15
476.00000000001273,4.237902594770665e-15
476.10000000001276,4.2626428590840485e-15
476.2000000000128,4.28759548781458e-15
476.3000000000128,4.312762859109005e-15
476.4000000000128,4.338147383593659e-15
476.50000000001285,4.363751504891558e-15
476.60000000001287,4.3895777001487605e-15
476.7000000000129,4.415628480570174e-15
476.8000000000129,4.441906391964994e-15
476.90000000001294,4.46841401530196e-15
477.00000000001296,4.495153967274631e-15
477.100000000013,4.522128900876866e-15
477.200000000013,4.549341505988702e-15
477.30000000001303,4.576794509972874e-15
477.40000000001305,4.604490678282135e-15
477.5000000000131,4.632432815077604e-15
477.6000000000131,4.660623763858399e-15
477.7000000000131,4.6890664081027084e-15
477.80000000001314,4.71776367192059e-15
477.90000000001316,4.746718520718684e-15
478.0000000000132,4.775933961877102e-15
478.1000000000132,4.805413045438717e-15
478.20000000001323,4.835158864811115e-15
478.30000000001326,4.865174557481438e-15
478.4000000000133,4.895463305744398e-15
478.5000000000133,4.926028337443695e-15
478.6000000000133,4.9568729267271375e-15
478.70000000001335,4.9880003948156966e-15
478.80000000001337,5.0194141107868194e-15
478.9000000000134,5.051117492372229e-15
479.0000000000134,5.083114006770551e-15
479.10000000001344,5.1154071714750245e-15
479.20000000001346,5.148000555116609e-15
479.3000000000135,5.1808977783227995e-15
479.4000000000135,5.214102514592448e-15
479.50000000001353,5.247618491186924e-15
479.60000000001355,5.2814494900379276e-15
479.7000000000136,5.315599348672286e-15
479.8000000000136,5.350071961154084e-15
479.9000000000136,5.3848712790444465e-15
480.00000000001364,5.420001312379362e-15
480.10000000001367,5.45546613066586e-15
480.2000000000137,5.49126986389695e-15
480.3000000000137,5.5274167035856505e-15
480.40000000001373,5.563910903818539e-15
480.50000000001376,5.60075678232915e-15
480.6000000000138,5.6379587215916705e-15
480.7000000000138,5.675521169935286e-15
480.8000000000138,5.713448642679632e-15
480.90000000001385,5.751745723291724e-15
481.00000000001387,5.7904170645648174e-15
481.1000000000139,5.8294673898196365e-15
481.2000000000139,5.868901494128377e-15
481.30000000001394,5.908724245561969e-15
481.40000000001396,5.948940586461042e-15
481.500000000014,5.989555534731052e-15
481.600000000014,6.030574185162054e-15
481.70000000001403,6.072001710773598e-15
481.80000000001405,6.113843364185244e-15
481.9000000000141,6.156104479013188e-15
482.0000000000141,6.1987904712935116e-15
482.1000000000141,6.2419068409325845e-15
482.20000000001414,6.285459173185119e-15
482.30000000001417,6.329453140160442e-15
482.4000000000142,6.3738945023575154e-15
482.5000000000142,6.418789110229249e-15
482.60000000001423,6.464142905776692e-15
482.70000000001426,6.509961924173657e-15
482.8000000000143,6.556252295422363e-15
482.9000000000143,6.603020246040691e-15
483.0000000000143,6.650272100781655e-15
483.10000000001435,6.6980142843856795e-15
483.20000000001437,6.746253323366331e-15
483.3000000000144,6.794995847830106e-15
483.4000000000144,6.844248593330925e-15
483.50000000001444,6.894018402759977e-15
483.60000000001446,6.944312228271563e-15
483.7000000000145,6.99513713324561e-15
483.8000000000145,7.046500294287526e-15
483.90000000001453,7.098409003266078e-15
484.00000000001455,7.150870669389972e-15
484.1000000000146,7.203892821323854e-15
484.2000000000146,7.257483109344416e-15
484.3000000000146,7.311649307537338e-15
484.40000000001464,7.366399316035771e-15
484.50000000001467,7.421741163301118e-15
484.6000000000147,7.4776830084468e-15
484.7000000000147,7.534233143605814e-15
484.80000000001473,7.591399996342765e-15
484.90000000001476,7.649192132111173e-15
485.0000000000148,7.707618256756804e-15
485.1000000000148,7.766687219067773e-15
485.2000000000148,7.826408013372195e-15
485.30000000001485,7.886789782184178e-15
485.40000000001487,7.947841818898888e-15
485.5000000000149,8.009573570537512e-15
485.6000000000149,8.071994640542856e-15
485.70000000001494,8.13511479162637e-15
485.80000000001496,8.198943948667402e-15
485.900000000015,8.2634922016654e-15
486.000000000015,8.328769808745905e-15
486.10000000001503,8.394787199221038e-15
486.20000000001505,8.461554976705294e-15
486.3000000000151,8.529083922287378e-15
486.4000000000151,8.597384997758822e-15
486.5000000000151,8.66646934890016e-15
486.60000000001514,8.736348308825331e-15
486.70000000001517,8.807033401385098e-15
486.8000000000152,8.8785363446301e-15
486.9000000000152,8.950869054334304e-15
487.00000000001523,9.024043647579432e-15
487.10000000001526,9.098072446401097e-15
487.2000000000153,9.172967981497181e-15
487.3000000000153,9.248742995999089e-15
487.4000000000153,9.325410449306439e-15
487.50000000001535,9.402983520985695e-15
487.60000000001537,9.481475614733234e-15
487.7000000000154,9.56090036240332e-15
487.8000000000154,9.641271628101371e-15
487.90000000001544,9.722603512342859e-15
488.00000000001546,9.804910356278188e-15
488.1000000000155,9.888206745983796e-15
488.2000000000155,9.972507516819608e-15
488.30000000001553,1.005782775785306e-14
488.40000000001555,1.0144182816349643e-14
488.5000000000156,1.0231588302330029e-14
488.6000000000156,1.032006009319359e-14
488.7000000000156,1.0409614338408172e-14
488.80000000001564,1.0500267464265772e-14
488.90000000001567,1.0592036178703753e-14
489.0000000000157,1.068493747619106e-14
489.1000000000157,1.077898864267882e-14
489.20000000001573,1.0874207260614516e-14
489.30000000001576,1.0970611214018906e-14
489.4000000000158,1.1068218693624553e-14
489.5000000000158,1.1167048202074835e-14
489.6000000000158,1.1267118559181953e-14
489.70000000001585,1.1368448907242514e-14
489.80000000001587,1.1471058716408797e-14
489.9000000000159,1.1574967790113837e-14
490.0000000000159,1.1680196270548085e-14
490.10000000001594,1.1786764644185275e-14
490.20000000001596,1.1894693747354799e-14
490.300000000016,1.2004004771857678e-14
490.400000000016,1.2114719270622906e-14
490.50000000001603,1.2226859163400623e-14
490.60000000001605,1.2340446742488348e-14
490.7000000000161,1.2455504678486027e-14
490.8000000000161,1.2572056026075361e-14
490.9000000000161,1.2690124229818545e-14
491.00000000001614,1.2809733129971011e-14
491.10000000001617,1.293090696830245e-14
491.2000000000162,1.3053670393919871e-14
491.3000000000162,1.3178048469086011e-14
491.40000000001623,1.3304066675025797e-14
491.50000000001626,1.3431750917713139e-14
491.6000000000163,1.356112753362968e-14
491.7000000000163,1.3692223295486531e-14
491.8000000000163,1.3825065417899318e-14
491.90000000001635,1.3959681563006318e-14
492.00000000001637,1.4096099846018537e-14
492.1000000000164,1.4234348840690025e-14
492.2000000000164,1.4374457584695706e-14
492.30000000001644,1.451645558490331e-14
492.40000000001646,1.4660372822524954e-14
492.5000000000165,1.4806239758133098e-14
492.6000000000165,1.49540873365244e-14
492.70000000001653,1.510394699141418e-14
492.80000000001655,1.525585064994279e-14
492.9000000000166,1.5409830736974235e-14
493.0000000000166,1.556592017916605e-14
493.1000000000166,1.5724152408788038e-14
493.20000000001664,1.5884561367266267e-14
493.30000000001667,1.604718150842708e-14
493.4000000000167,1.621204780141446e-14
493.5000000000167,1.6379195733252404e-14
493.60000000001673,1.6548661311022293e-14
493.70000000001676,1.6720481063623477e-14
493.8000000000168,1.6894692043083315e-14
493.9000000000168,1.7071331825381085e-14
494.0000000000168,1.725043851074807e-14
494.10000000001685,1.7432050723403778e-14
494.20000000001687,1.7616207610686323e-14
494.3000000000169,1.780294884153229e-14
494.4000000000169,1.799231460425912e-14
494.50000000001694,1.818434560360034e-14
494.60000000001696,1.8379083056941252e-14
494.700000000017,1.8576568689699948e-14
494.800000000017,1.877684472979535e-14
494.90000000001703,1.897995390114106e-14
495.00000000001705,1.9185939416100443e-14
495.1000000000171,1.9394844966835084e-14
495.2000000000171,1.960671471547516e-14
495.3000000000171,1.982159328303669e-14
495.40000000001714,2.0039525737006846e-14
495.50000000001717,2.026055757751449e-14
495.6000000000172,2.048473472199907e-14
495.7000000000172,2.071210348828687e-14
495.80000000001723,2.094271057597908e-14
495.90000000001726,2.1176603046051725e-14
496.0000000000173,2.1413828298562906e-14
496.1000000000173,2.1654434048357856e-14
496.2000000000173,2.1898468298657546e-14
496.30000000001735,2.2145979312411373e-14
496.40000000001737,2.2397015581289417e-14
496.5000000000174,2.265162579218437e-14
496.6000000000174,2.2909858791087807e-14
496.70000000001744,2.3171763544200112e-14
496.80000000001746,2.3437389096127607e-14
496.9000000000175,2.3706784525014933e-14
497.0000000000175,2.3979998894454913e-14
497.10000000001753,2.425708120201259e-14
497.20000000001755,2.4538080324194055e-14
497.3000000000176,2.482304495768548e-14
497.4000000000176,2.5112023556681595e-14
497.5000000000176,2.5405064266117624e-14
497.60000000001764,2.570221485061319e-14
497.70000000001767,2.600352261893126e-14
497.8000000000177,2.6309034343750372e-14
497.9000000000177,2.6618796176543404e-14
498.00000000001774,2.6932853557351828e-14
498.10000000001776,2.725125111924006e-14
498.2000000000178,2.7574032587211232e-14
498.3000000000178,2.7901240671362305e-14
498.4000000000178,2.8232916954054124e-14
498.50000000001785,2.856910177087012e-14
498.60000000001787,2.890983408513662e-14
498.7000000000179,2.925515135577719e-14
498.8000000000179,2.9605089398275083e-14
498.90000000001794,2.995968223851914e-14
499.00000000001796,3.031896195931259e-14
499.100000000018,3.0682958539328656e-14
499.200000000018,3.1051699684303035e-14
499.30000000001803,3.1425210650261947e-14
499.40000000001805,3.180351405859387e-14
499.5000000000181,3.2186629702785566e-14
499.6000000000181,3.25745743466571e-14
499.7000000000181,3.29673615139473e-14
499.80000000001814,3.3365001269120925e-14
499.90000000001817,3.3767499989290506e-14
500.0000000000182,3.4174860127171986e-14
500.1000000000182,3.4587079965021506e-14
500.20000000001824,3.500415335953317e-14
500.30000000001826,3.5426069477713794e-14
500.4000000000183,3.58528125237908e-14
500.5000000000183,3.6284361457253614e-14
500.6000000000183,3.672068970217793e-14
500.70000000001835,3.7161764848035855e-14
500.8000000000184,3.7607548342253435e-14
500.9000000000184,3.8057995174840555e-14
501.0000000000184,3.85130535554874e-14
501.10000000001844,3.8972664583595805e-14
501.20000000001846,3.94367619117942e-14
501.3000000000185,3.9905271403570185e-14
501.4000000000185,4.03781107857464e-14
501.50000000001853,4.0855189296622635e-14
501.60000000001855,4.133640733070988e-14
501.7000000000186,4.182165608109068e-14
501.8000000000186,4.2310817180554077e-14
501.9000000000186,4.2803762342772435e-14
502.00000000001864,4.330035300491157e-14
502.10000000001867,4.380043997319388e-14
502.2000000000187,4.430386307306629e-14
502.3000000000187,4.481045080576005e-14
502.40000000001874,4.532002001316764e-14
502.50000000001876,4.5832375553100553e-14
502.6000000000188,4.6347309987131916e-14
502.7000000000188,4.6864603283366454e-14
502.8000000000188,4.73840225366171e-14
502.90000000001885,4.7905321708600465e-14
503.0000000000189,4.842824139089137e-14
503.1000000000189,4.8952508593496964e-14
503.2000000000189,4.947783656202255e-14
503.30000000001894,5.000392462650154e-14
503.40000000001896,5.053045808504862e-14
503.500000000019,5.10571081255662e-14
503.600000000019,5.1583531788786444e-14
503.70000000001903,5.2109371975963116e-14
503.80000000001905,5.263425750453516e-14
503.9000000000191,5.3157803215065566e-14
504.0000000000191,5.3679610132712063e-14
504.1000000000191,5.419926568640721e-14
504.20000000001914,5.471634398881269e-14
504.30000000001917,5.523040617996355e-14
504.4000000000192,5.5741000837329826e-14
504.5000000000192,5.6247664454795456e-14
504.60000000001924,5.6749921992783355e-14
504.70000000001926,5.724728750144237e-14
504.8000000000193,5.773926481845414e-14
504.9000000000193,5.82253483426163e-14
505.0000000000193,5.870502388391298e-14
505.10000000001935,5.917776959029497e-14
505.2000000000194,5.964305695086338e-14
505.3000000000194,6.010035187458191e-14
505.4000000000194,6.054911584304028e-14
505.50000000001944,6.098880713515662e-14
505.60000000001946,6.141888212104599e-14
505.7000000000195,6.183879662160061e-14
505.8000000000195,6.224800732963191e-14
505.90000000001953,6.264597328772177e-14
506.00000000001955,6.303215741722915e-14
506.1000000000196,6.340602809220639e-14
506.2000000000196,6.376706075130655e-14
506.3000000000196,6.411473954011835e-14
506.40000000001965,6.444855897575878e-14
506.50000000001967,6.476802562499467e-14
506.6000000000197,6.507265978666363e-14
506.7000000000197,6.536199716873122e-14
506.80000000001974,6.563559054996374e-14
506.90000000001976,6.58930114159241e-14
507.0000000000198,6.613385155881815e-14
507.1000000000198,6.635772463063828e-14
507.2000000000198,6.656426763907504e-14
507.30000000001985,6.675314237579917e-14
507.4000000000199,6.692403676696069e-14
507.5000000000199,6.707666613610556e-14
507.6000000000199,6.72107743701772e-14
507.70000000001994,6.732613497984359e-14
507.80000000001996,6.742255204606891e-14
507.90000000002,6.749986104562385e-14
508.00000000002,6.755792954909383e-14
508.10000000002003,6.759665778588916e-14
508.20000000002005,6.761597907177548e-14
508.3000000000201,6.761586009551404e-14
508.4000000000201,6.759630106231552e-14
508.5000000000201,6.755733569295581e-14
508.60000000002015,6.749903107856068e-14
508.70000000002017,6.742148739222526e-14
508.8000000000202,6.732483745977851e-14
508.9000000000202,6.720924619311628e-14
509.00000000002024,6.707490989059778e-14
509.10000000002026,6.692205541001305e-14
509.2000000000203,6.675093922057349e-14
509.3000000000203,6.656184634124133e-14
509.4000000000203,6.635508917348798e-14
509.50000000002035,6.613100623724815e-14
509.6000000000204,6.588996081940901e-14
509.7000000000204,6.563233954463843e-14
509.8000000000204,6.535855087870992e-14
509.90000000002044,6.506902357472382e-14
510.00000000002046,6.476420507275476e-14
510.1000000000205,6.444455986347863e-14
510.2000000000205,6.411056782624983e-14
510.30000000002053,6.376272255191844e-14
510.40000000002055,6.340152966040448e-14
510.5000000000206,6.302750512268688e-14
510.6000000000206,6.264117359643169e-14
510.7000000000206,6.224306678398122e-14
510.80000000002065,6.183372182086724e-14
510.90000000002067,6.141367970240364e-14
511.0000000000207,6.09834837552696e-14
511.1000000000207,6.05436781603199e-14
511.20000000002074,6.009480653216853e-14
511.30000000002076,5.963741056038879e-14
511.4000000000208,5.917202871647167e-14
511.5000000000208,5.869919502998843e-14
511.6000000000208,5.821943793672177e-14
511.70000000002085,5.773327920087021e-14
511.8000000000209,5.724123291279525e-14
511.9000000000209,5.6743804563179125e-14
512.0000000000209,5.6241490193892606e-14
512.1000000000209,5.573477562534442e-14
512.200000000021,5.522413575959525e-14
512.300000000021,5.471003395807503e-14
512.400000000021,5.419292149234068e-14
512.500000000021,5.367323706595475e-14
512.600000000021,5.315140640525191e-14
512.7000000000211,5.262784191649114e-14
512.8000000000211,5.210294240666303e-14
512.9000000000211,5.1577092865034626e-14
513.0000000000211,5.1050664302365464e-14
513.1000000000212,5.052401364461593e-14
513.2000000000212,4.999748367789072e-14
513.3000000000212,4.947140304131353e-14
513.4000000000212,4.894608626451068e-14
513.5000000000213,4.842183384639018e-14
513.6000000000213,4.789893237193403e-14
513.7000000000213,4.737765466377471e-14
513.8000000000213,4.685825996539753e-14
513.9000000000214,4.634099415289778e-14
514.0000000000214,4.582608997232179e-14
514.1000000000214,4.531376729973269e-14
514.2000000000214,4.480423342126231e-14
514.3000000000214,4.429768333053862e-14
514.4000000000215,4.379430004101097e-14
514.5000000000215,4.329425491083233e-14
514.6000000000215,4.279770797809646e-14
514.7000000000215,4.230480830436753e-14
514.8000000000216,4.181569432457914e-14
514.9000000000216,4.133049420151701e-14
515.0000000000216,4.084932618323534e-14
515.1000000000216,4.0372298961888595e-14
515.2000000000216,3.9899512032588985e-14
515.3000000000217,3.9431056051023815e-14
515.4000000000217,3.896701318868571e-14
515.5000000000217,3.850745748468287e-14
515.6000000000217,3.805245519320486e-14
515.7000000000218,3.7602065125822254e-14
515.8000000000218,3.71563389878956e-14
515.9000000000218,3.671532170846078e-14
516.0000000000218,3.627905176304301e-14
516.1000000000219,3.584756148893215e-14
516.2000000000219,3.5420877392526075e-14
516.3000000000219,3.4999020448417817e-14
516.4000000000219,3.458200638996565e-14
516.5000000000219,3.416984599114404e-14
516.600000000022,3.376254533952658e-14
516.700000000022,3.336010610030103e-14
516.800000000022,3.2962525771261e-14
516.900000000022,3.256979792875854e-14
517.000000000022,3.218191246463853e-14
517.1000000000221,3.179885581420742e-14
517.2000000000221,3.142061117531806e-14
517.3000000000221,3.1047158718677526e-14
517.4000000000221,3.0678475789507145e-14
517.5000000000222,3.031453710070346e-14
517.6000000000222,2.9955314917665556e-14
517.7000000000222,2.960077923496839e-14
517.8000000000222,2.9250897945074036e-14
517.9000000000223,2.8905636999282405e-14
518.0000000000223,2.856496056113138e-14
518.1000000000223,2.822883115246241e-14
518.2000000000223,2.7897209792372432e-14
518.3000000000224,2.7570056129276533e-14
518.4000000000224,2.724732856630754e-14
518.5000000000224,2.69289843802799e-14
518.6000000000224,2.661497983444502e-14
518.7000000000224,2.630527028526434e-14
518.8000000000225,2.599981028342444e-14
518.9000000000225,2.5698553669316247e-14
519.0000000000225,2.5401453663197056e-14
519.1000000000225,2.5108462950250612e-14
519.2000000000226,2.481953376075629e-14
519.3000000000226,2.4534617945574056e-14
519.4000000000226,2.4253667047146897e-14
519.5000000000226,2.3976632366217662e-14
519.6000000000226,2.370346502445152e-14
519.7000000000227,2.3434116023150346e-14
519.8000000000227,2.3168536298239202e-14
519.9000000000227,2.290667677169995e-14
520.0000000000227,2.2648488399620963e-14
520.1000000000228,2.2393922217026272e-14
520.2000000000228,2.2142929379641905e-14
520.3000000000228,2.189546120275124e-14
520.4000000000228,2.165146919728576e-14
520.5000000000229,2.141090510329184e-14
520.6000000000229,2.1173720920908842e-14
520.7000000000229,2.0939868938988322e-14
520.8000000000229,2.0709301761478805e-14
520.9000000000229,2.0481972331695547e-14
521.000000000023,2.0257833954589518e-14
521.100000000023,2.0036840317124908e-14
521.200000000023,1.9818945506869854e-14
521.300000000023,1.9604104028900117e-14
521.400000000023,1.9392270821111273e-14
521.5000000000231,1.918340126803033e-14
521.6000000000231,1.8977451213213653e-14
521.7000000000231,1.8774376970313892e-14
521.8000000000231,1.8574135332894752e-14
521.9000000000232,1.8376683583068578e-14
522.0000000000232,1.8181979499028147e-14
522.1000000000232,1.7989981361540523e-14
522.2000000000232,1.780064795946747e-14
522.3000000000233,1.761393859437365e-14
522.4000000000233,1.7429813084280798e-14
522.5000000000233,1.7248231766623073e-14
522.6000000000233,1.7069155500455798e-14
522.7000000000234,1.6892545667967398e-14
522.8000000000234,1.6718364175341336e-14
522.9000000000234,1.6546573453012697e-14
523.0000000000234,1.6377136455361514e-14
523.1000000000234,1.6210016659882666e-14
523.2000000000235,1.6045178065870093e-14
523.3000000000235,1.5882585192650936e-14
523.4000000000235,1.5722203077403262e-14
523.5000000000235,1.556399727258915e-14
523.6000000000236,1.5407933843033196e-14
523.7000000000236,1.5253979362674637e-14
523.8000000000236,1.510210091101987e-14
523.9000000000236,1.495226606932049e-14
524.0000000000236,1.4804442916500476e-14
524.1000000000237,1.4658600024854925e-14
524.2000000000237,1.451470645554122e-14
524.3000000000237,1.4372731753882444e-14
524.4000000000237,1.4232645944501502e-14
524.5000000000238,1.4094419526303457e-14
524.6000000000238,1.3958023467322346e-14
524.7000000000238,1.3823429199447899e-14
524.8000000000238,1.3690608613046466e-14
524.9000000000239,1.3559534051489691e-14
525.0000000000239,1.3430178305603488e-14
525.1000000000239,1.3302514608049181e-14
525.2000000000239,1.3176516627647796e-14
525.3000000000239,1.3052158463657831e-14
525.400000000024,1.2929414640016114e-14
525.500000000024,1.2808260099550713e-14
525.600000000024,1.2688670198174265e-14
525.700000000024,1.2570620699065511e-14
525.800000000024,1.245408776684617e-14
525.9000000000241,1.2339047961760028e-14
526.0000000000241,1.2225478233860296e-14
526.1000000000241,1.2113355917211102e-14
526.2000000000241,1.2002658724108413e-14
526.3000000000242,1.1893364739325326e-14
526.4000000000242,1.1785452414386211e-14
526.5000000000242,1.1678900561873969e-14
526.6000000000242,1.1573688349774146e-14
526.7000000000243,1.14697952958595e-14
526.8000000000243,1.1367201262118163e-14
526.9000000000243,1.1265886449228366e-14
527.0000000000243,1.1165831391082389e-14
527.1000000000244,1.1067016949362136e-14
527.2000000000244,1.0969424308168517e-14
527.3000000000244,1.0873034968706593e-14
527.4000000000244,1.0777830744028241e-14
527.5000000000244,1.068379375383392e-14
527.6000000000245,1.059090641933483e-14
527.7000000000245,1.0499151458176825e-14
527.8000000000245,1.0408511879426957e-14
527.9000000000245,1.0318970978623674e-14
528.0000000000246,1.0230512332891414e-14
528.1000000000246,1.0143119796120166e-14
528.2000000000246,1.0056777494210606e-14
528.3000000000246,9.971469820385142e-15
528.4000000000246,9.887181430565178e-15
528.5000000000247,9.803897238814841e-15
528.6000000000247,9.72160241285122e-15
528.7000000000247,9.640282369621175e-15
528.8000000000247,9.559922770944687e-15
528.9000000000248,9.480509519224558e-15
529.0000000000248,9.40202875322238e-15
529.1000000000248,9.324466843900397e-15
529.2000000000248,9.24781039032906e-15
529.3000000000249,9.172046215659843e-15
529.4000000000249,9.097161363162982e-15
529.5000000000249,9.023143092329608e-15
529.6000000000249,8.949978875037845e-15
529.7000000000249,8.877656391782336e-15
529.800000000025,8.806163527966609e-15
529.900000000025,8.735488370257732e-15
530.000000000025,8.665619203002603e-15
530.100000000025,8.596544504705265e-15
530.200000000025,8.528252944564573e-15
530.3000000000251,8.460733379071512e-15
530.4000000000251,8.393974848665508e-15
530.5000000000251,8.32796657444895e-15
530.6000000000251,8.262697954959292e-15
530.7000000000252,8.198158562997896e-15
530.8000000000252,8.13433814251492e-15
530.9000000000252,8.0712266055495e-15
531.0000000000252,8.00881402922443e-15
531.1000000000253,7.947090652794603e-15
531.2000000000253,7.8860468747484e-15
531.3000000000253,7.825673249961312e-15
531.4000000000253,7.765960486900945e-15
531.5000000000254,7.706899444882696e-15
531.6000000000254,7.648481131375271e-15
531.7000000000254,7.590696699355306e-15
531.8000000000254,7.533537444710297e-15
531.9000000000254,7.476994803689064e-15
532.0000000000255,7.421060350399001e-15
532.1000000000255,7.365725794349325e-15
532.2000000000255,7.310982978039585e-15
532.3000000000255,7.256823874592655e-15
532.4000000000256,7.203240585431488e-15
532.5000000000256,7.150225337998862e-15
532.6000000000256,7.097770483519418e-15
532.7000000000256,7.045868494803207e-15
532.8000000000256,6.994511964090086e-15
532.9000000000257,6.943693600934209e-15
533.0000000000257,6.893406230127915e-15
533.1000000000257,6.8436427896643235e-15
533.2000000000257,6.794396328737942e-15
533.3000000000258,6.745660005782605e-15
533.4000000000258,6.697427086546073e-15
533.5000000000258,6.649690942200626e-15
533.6000000000258,6.602445047488995e-15
533.7000000000259,6.5556829789049975e-15
533.8000000000259,6.509398412908222e-15
533.9000000000259,6.463585124172147e-15
534.0000000000259,6.4182369838650766e-15
534.100000000026,6.3733479579632705e-15
534.200000000026,6.328912105595687e-15
534.300000000026,6.2849235774197296e-15
534.400000000026,6.241376614027433e-15
534.500000000026,6.198265544381505e-15
534.6000000000261,6.1555847842806595e-15
534.7000000000261,6.113328834853707e-15
534.8000000000261,6.071492281081821e-15
534.9000000000261,6.030069790348488e-15
535.0000000000261,5.989056111016581e-15
535.1000000000262,5.948446071032053e-15
535.2000000000262,5.9082345765537406e-15
535.3000000000262,5.8684166106087796e-15
535.4000000000262,5.8289872317731374e-15
535.5000000000263,5.7899415728767825e-15
535.6000000000263,5.751274839733012e-15
535.7000000000263,5.712982309891481e-15
535.8000000000263,5.6750593314144715e-15
535.9000000000264,5.637501321675949e-15
536.0000000000264,5.600303766182973e-15
536.1000000000264,5.5634622174190225e-15
536.2000000000264,5.5269722937088204e-15
536.3000000000264,5.490829678104228e-15
536.4000000000265,5.455030117290815e-15
536.5000000000265,5.419569420514689e-15
536.6000000000265,5.384443458529203e-15
536.7000000000265,5.3496481625611545e-15
536.8000000000266,5.315179523296081e-15
536.9000000000266,5.281033589882302e-15
537.0000000000266,5.24720646895333e-15
537.1000000000266,5.213694323668299e-15
537.2000000000266,5.1804933727700504e-15
537.3000000000267,5.147599889660545e-15
537.4000000000267,5.115010201493252e-15
537.5000000000267,5.0827206882822015e-15
537.6000000000267,5.050727782027349e-15
537.7000000000268,5.0190279658559624e-15
537.8000000000268,4.987617773179701e-15
537.9000000000268,4.956493786867089e-15
538.0000000000268,4.925652638431082e-15
538.1000000000269,4.895091007231431e-15
538.2000000000269,4.864805619691562e-15
538.3000000000269,4.8347932485296785e-15
538.4000000000269,4.805050712003821e-15
538.500000000027,4.7755748731706106e-15
538.600000000027,4.746362639157397e-15
538.700000000027,4.717410960447576e-15
538.800000000027,4.6887168301787945e-15
538.900000000027,4.660277283453812e-15
539.0000000000271,4.6320893966637684e-15
539.1000000000271,4.604150286823607e-15
539.2000000000271,4.5764571109194315e-15
539.3000000000271,4.549007065267564e-15
539.4000000000271,4.521797384885068e-15
539.5000000000272,4.4948253428715245e-15
539.6000000000272,4.468088249801839e-15
539.7000000000272,4.4415834531298735e-15
539.8000000000272,4.4153083366026804e-15
539.9000000000273,4.3892603196851536e-15
540.0000000000273,4.363436856994878e-15
540.1000000000273,4.33783543774699e-15
540.2000000000273,4.312453585208863e-15
540.3000000000274,4.287288856164414e-15
540.4000000000274,4.262338840387859e-15
540.5000000000274,4.2376011601267335e-15
540.6000000000274,4.213073469593994e-15
540.7000000000274,4.1887534544690385e-15
540.8000000000275,4.164638831407467e-15
540.9000000000275,4.1407273475594145e-15
541.0000000000275,4.117016780096306e-15
541.1000000000275,4.093504935745848e-15
541.2000000000276,4.070189650335132e-15
541.3000000000276,4.047068788341666e-15
541.4000000000276,4.024140242452205e-15
541.5000000000276,4.00140193312922e-15
541.6000000000276,3.978851808184865e-15
541.7000000000277,3.9564878423623064e-15
541.8000000000277,3.9343080369242615e-15
541.9000000000277,3.9123104192486224e-15
542.0000000000277,3.890493042431027e-15
542.1000000000278,3.868853984894252e-15
542.2000000000278,3.847391350004284e-15
542.3000000000278,3.8261032656929605e-15
542.4000000000278,3.8049878840870575e-15
542.5000000000279,3.784043381143681e-15
542.6000000000279,3.763267956291876e-15
542.7000000000279,3.742659832080308e-15
542.8000000000279,3.7222172538309275e-15
542.900000000028,3.701938489298487e-15
543.000000000028,3.6818218283358135e-15
543.100000000028,3.661865582564728e-15
543.200000000028,3.642068085052496e-15
543.300000000028,3.6224276899937345e-15
543.4000000000281,3.602942772397626e-15
543.5000000000281,3.583611727780407e-15
543.6000000000281,3.5644329718629626e-15
543.7000000000281,3.5454049402734964e-15
543.8000000000281,3.5265260882551375e-15
543.9000000000282,3.507794890378417e-15
544.0000000000282,3.4892098402585162e-15
544.1000000000282,3.470769450277201e-15
544.2000000000282,3.4524722513093595e-15
544.3000000000283,3.4343167924540543e-15
544.4000000000283,3.4163016407700056e-15
544.5000000000283,3.3984253810154327e-15
544.6000000000283,3.3806866153921687e-15
544.7000000000284,3.363083963293969e-15
544.8000000000284,3.3456160610589417e-15
544.9000000000284,3.3282815617260228e-15
545.0000000000284,3.311079134795428e-15
545.1000000000284,3.294007465993e-15
545.2000000000285,3.2770652570383885e-15
545.3000000000285,3.260251225416994e-15
545.4000000000285,3.2435641041555996e-15
545.5000000000285,3.227002641601639e-15
545.6000000000286,3.2105656012060193e-15
545.7000000000286,3.1942517613094474e-15
545.8000000000286,3.1780599149321893e-15
545.9000000000286,3.1619888695672117e-15
546.0000000000286,3.146037446976626e-15
546.1000000000287,3.1302044829914034e-15
546.2000000000287,3.1144888273142758e-15
546.3000000000287,3.098889343325784e-15
546.4000000000287,3.0834049078934123e-15
546.5000000000288,3.0680344111837535e-15
546.6000000000288,3.052776756477651e-15
546.7000000000288,3.0376308599882667e-15
546.8000000000288,3.0225956506820226e-15
546.9000000000289,3.0076700701023695e-15
547.0000000000289,2.9928530721963248e-15
547.1000000000289,2.978143623143736e-15
547.2000000000289,2.9635407011892294e-15
547.300000000029,2.9490432964767785e-15
547.400000000029,2.9346504108868674e-15
547.500000000029,2.920361057876191e-15
547.600000000029,2.9061742623198495e-15
547.700000000029,2.892089060355997e-15
547.8000000000291,2.878104499232904e-15
547.9000000000291,2.8642196371583845e-15
548.0000000000291,2.8504335431515508e-15
548.1000000000291,2.8367452968968613e-15
548.2000000000291,2.8231539886004103e-15
548.3000000000292,2.809658718848431e-15
548.4000000000292,2.796258598467972e-15
548.5000000000292,2.7829527483897056e-15
548.6000000000292,2.7697402995128357e-15
548.7000000000293,2.7566203925720665e-15
548.8000000000293,2.7435921780066054e-15
548.9000000000293,2.730654815831148e-15
549.0000000000293,2.7178074755088302e-15
549.1000000000294,2.7050493358261056e-15
549.2000000000294,2.6923795847695124e-15
549.3000000000294,2.6797974194043043e-15
549.4000000000294,2.6673020457549117e-15
549.5000000000294,2.6548926786871997e-15
549.6000000000295,2.6425685417924984e-15
549.7000000000295,2.630328867273368e-15
549.8000000000295,2.618172895831079e-15
549.9000000000295,2.6060998765547686e-15
550.0000000000296,2.5941090668122545e-15
550.1000000000296,2.5821997321424733e-15
550.2000000000296,2.570371146149517e-15
550.3000000000296,2.5586225903982407e-15
550.4000000000296,2.5469533543114194e-15
550.5000000000297,2.5353627350684228e-15
550.6000000000297,2.523850037505387e-15
550.7000000000297,2.512414574016853e-15
550.8000000000297,2.501055664458858e-15
550.9000000000298,2.4897726360534458e-15
551.0000000000298,2.4785648232945716e-15
551.1000000000298,2.4674315678553937e-15
551.2000000000298,2.45637221849691e-15
551.3000000000299,2.445386130977929e-15
551.4000000000299,2.434472667966353e-15
551.5000000000299,2.423631198951745e-15
551.6000000000299,2.412861100159167e-15
551.70000000003,2.402161754464264e-15
551.80000000003,2.3915325513095753e-15
551.90000000003,2.380972886622051e-15
552.00000000003,2.3704821627317577e-15
552.10000000003,2.3600597882917517e-15
552.2000000000301,2.349705178199103e-15
552.3000000000301,2.3394177535170457e-15
552.4000000000301,2.3291969413982475e-15
552.5000000000301,2.3190421750091704e-15
552.6000000000301,2.3089528934555074e-15
552.7000000000302,2.298928541708684e-15
552.8000000000302,2.2889685705334e-15
552.9000000000302,2.279072436416197e-15
553.0000000000302,2.2692396014950396e-15
553.1000000000303,2.259469533489886e-15
553.2000000000303,2.2497617056342444e-15
553.3000000000303,2.2401155966076853e-15
553.4000000000303,2.230530690469306e-15
553.5000000000304,2.2210064765921245e-15
553.6000000000304,2.2115424495983988e-15
553.7000000000304,2.202138109295838e-15
553.8000000000304,2.1927929606147184e-15
553.9000000000304,2.1835065135458593e-15
554.0000000000305,2.174278283079474e-15
554.1000000000305,2.1651077891448608e-15
554.2000000000305,2.1559945565509346e-15
554.3000000000305,2.1469381149275783e-15
554.4000000000306,2.1379379986678038e-15
554.5000000000306,2.1289937468707075e-15
554.6000000000306,2.120104903285221e-15
554.7000000000306,2.111271016254618e-15
554.8000000000306,2.1024916386617973e-15
554.9000000000307,2.0937663278753037e-15
555.0000000000307,2.085094645696092e-15
555.1000000000307,2.076476158305017e-15
555.2000000000307,2.067910436211034e-15
555.3000000000308,2.059397054200108e-15
555.4000000000308,2.0509355912848155e-15
555.5000000000308,2.042525630654625e-15
555.6000000000308,2.0341667596268556e-15
555.7000000000309,2.0258585695982915e-15
555.8000000000309,2.0176006559974552e-15
555.9000000000309,2.0093926182375148e-15
556.0000000000309,2.001234059669832e-15
556.100000000031,1.993124587538127e-15
556.200000000031,1.9850638129332582e-15
556.300000000031,1.9770513507486087e-15
556.400000000031,1.969086819636063e-15
556.500000000031,1.9611698419625758e-15
556.6000000000311,1.953300043767312e-15
556.7000000000311,1.945477054719362e-15
556.8000000000311,1.9377005080760095e-15
556.9000000000311,1.929970040641559e-15
557.0000000000312,1.9222852927267013e-15
557.1000000000312,1.914645908108418e-15
557.2000000000312,1.9070515339904125e-15
557.3000000000312,1.899501820964058e-15
557.4000000000312,1.8919964229698635e-15
557.5000000000313,1.8845349972594394e-15
557.6000000000313,1.8771172043579624e-15
557.7000000000313,1.86974270802713e-15
557.8000000000313,1.8624111752285957e-15
557.9000000000314,1.855122276087885e-15
558.0000000000314,1.847875683858772e-15
558.1000000000314,1.8406710748881243e-15
558.2000000000314,1.833508128581201e-15
558.3000000000314,1.826386527367398e-15
558.4000000000315,1.819305956666435e-15
558.5000000000315,1.812266104854979e-15
558.6000000000315,1.805266663233697e-15
558.7000000000315,1.7983073259947306e-15
558.8000000000316,1.7913877901895863e-15
558.9000000000316,1.784507755697441e-15
559.0000000000316,1.7776669251938453e-15
559.1000000000316,1.7708650041198324e-15
559.2000000000317,1.7641017006514168e-15
559.3000000000317,1.7573767256694798e-15
559.4000000000317,1.75068979273004e-15
559.5000000000317,1.7440406180348981e-15
559.6000000000317,1.7374289204026533e-15
559.7000000000318,1.730854421240086e-15
559.8000000000318,1.7243168445139011e-15
559.9000000000318,1.7178159167228262e-15
560.0000000000318,1.711351366870061e-15
560.1000000000319,1.7049229264360723e-15
560.2000000000319,1.6985303293517289e-15
560.3000000000319,1.6921733119717733e-15
560.4000000000319,1.6858516130486234e-15
560.500000000032,1.6795649737065011e-15
560.600000000032,1.6733131374158836e-15
560.700000000032,1.6670958499682704e-15
560.800000000032,1.6609128594512645e-15
560.900000000032,1.6547639162239617e-15
561.0000000000321,1.6486487728926432e-15
561.1000000000321,1.6425671842867695e-15
561.2000000000321,1.6365189074352698e-15
561.3000000000321,1.6305037015431219e-15
561.4000000000322,1.6245213279682217e-15
561.5000000000322,1.6185715501985333e-15
561.6000000000322,1.6126541338295222e-15
561.7000000000322,1.6067688465418623e-15
561.8000000000322,1.6009154580794146e-15
561.9000000000323,1.5950937402274765e-15
562.0000000000323,1.5893034667912923e-15
562.1000000000323,1.5835444135748274e-15
562.2000000000323,1.5778163583597984e-15
562.3000000000324,1.5721190808849577e-15
562.4000000000324,1.566452362825629e-15
562.5000000000324,1.5608159877734873e-15
562.6000000000324,1.5552097412165858e-15
562.7000000000324,1.54963341051962e-15
562.8000000000325,1.544086784904432e-15
562.9000000000325,1.5385696554307452e-15
563.0000000000325,1.5330818149771318e-15
563.1000000000325,1.5276230582222083e-15
563.2000000000326,1.522193181626052e-15
563.3000000000326,1.5167919834118433e-15
563.4000000000326,1.511419263547724e-15
563.5000000000326,1.5060748237288703e-15
563.6000000000327,1.5007584673597818e-15
563.7000000000327,1.4954699995367748e-15
563.8000000000327,1.4902092270306889e-15
563.9000000000327,1.4849759582697928e-15
564.0000000000327,1.4797700033228927e-15
564.1000000000328,1.4745911738826426e-15
564.2000000000328,1.4694392832490461e-15
564.3000000000328,1.4643141463131532e-15
564.4000000000328,1.4592155795409513e-15
564.5000000000329,1.4541434009574395e-15
564.6000000000329,1.4490974301308926e-15
564.7000000000329,1.4440774881573066e-15
564.8000000000329,1.439083397645026e-15
564.900000000033,1.43411498269955e-15
565.000000000033,1.4291720689085144e-15
565.100000000033,1.4242544833268481e-15
565.200000000033,1.4193620544620995e-15
565.300000000033,1.4144946122599366e-15
565.4000000000331,1.4096519880898092e-15
565.5000000000331,1.40483401473078e-15
565.6000000000331,1.4000405263575165e-15
565.7000000000331,1.3952713585264451e-15
565.8000000000332,1.3905263481620624e-15
565.9000000000332,1.3858053335434054e-15
566.0000000000332,1.3811081542906732e-15
566.1000000000332,1.3764346513520052e-15
566.2000000000332,1.3717846669904056e-15
566.3000000000333,1.3671580447708214e-15
566.4000000000333,1.3625546295473622e-15
566.5000000000333,1.3579742674506702e-15
566.6000000000333,1.3534168058754271e-15
566.7000000000334,1.348882093468009e-15
566.8000000000334,1.3443699801142754e-15
566.9000000000334,1.3398803169274985e-15
567.0000000000334,1.3354129562364267e-15
567.1000000000334,1.330967751573485e-15
567.2000000000335,1.3265445576631047e-15
567.3000000000335,1.3221432304101858e-15
567.4000000000335,1.3177636268886873e-15
567.5000000000335,1.3134056053303467e-15
567.6000000000336,1.3090690251135238e-15
567.7000000000336,1.3047537467521684e-15
567.8000000000336,1.300459631884913e-15
567.9000000000336,1.2961865432642846e-15
568.0000000000337,1.2919343447460358e-15
568.1000000000337,1.2877029012785973e-15
568.2000000000337,1.2834920788926421e-15
568.3000000000337,1.2793017446907687e-15
568.4000000000337,1.2751317668372976e-15
568.5000000000338,1.2709820145481786e-15
568.6000000000338,1.2668523580810087e-15
568.7000000000338,1.2627426687251633e-15
568.8000000000338,1.2586528187920308e-15
568.9000000000339,1.254582681605357e-15
569.0000000000339,1.2505321314916942e-15
569.1000000000339,1.2465010437709546e-15
569.2000000000339,1.2424892947470655e-15
569.300000000034,1.2384967616987302e-15
569.400000000034,1.234523322870282e-15
569.500000000034,1.2305688574626455e-15
569.600000000034,1.22663324562439e-15
569.700000000034,1.2227163684428826e-15
569.8000000000341,1.2188181079355343e-15
569.9000000000341,1.2149383470411455e-15
570.0000000000341,1.2110769696113376e-15
570.1000000000341,1.2072338604020826e-15
570.2000000000342,1.2034089050653218e-15
570.3000000000342,1.1996019901406729e-15
570.4000000000342,1.1958130030472273e-15
570.5000000000342,1.1920418320754368e-15
570.6000000000342,1.188288366379082e-15
570.7000000000343,1.1845524959673326e-15
570.8000000000343,1.1808341116968855e-15
570.9000000000343,1.1771331052641936e-15
571.0000000000343,1.1734493691977707e-15
571.1000000000344,1.1697827968505826e-15
571.2000000000344,1.1661332823925154e-15
571.3000000000344,1.162500720802926e-15
571.4000000000344,1.1588850078632698e-15
571.5000000000344,1.1552860401498053e-15
571.6000000000345,1.1517037150263798e-15
571.7000000000345,1.1481379306372834e-15
571.8000000000345,1.144588585900186e-15
571.9000000000345,1.1410555804991421e-15
572.0000000000346,1.1375388148776743e-15
572.1000000000346,1.1340381902319223e-15
572.2000000000346,1.1305536085038698e-15
572.3000000000346,1.1270849723746398e-15
572.4000000000347,1.123632185257858e-15
572.5000000000347,1.120195151293086e-15
572.6000000000347,1.1167737753393255e-15
572.7000000000347,1.1133679629685847e-15
572.8000000000347,1.1099776204595156e-15
572.9000000000348,1.1066026547911155e-15
573.0000000000348,1.1032429736364932e-15
573.1000000000348,1.0998984853566985e-15
573.2000000000348,1.0965690989946182e-15
573.3000000000349,1.0932547242689325e-15
573.4000000000349,1.0899552715681333e-15
573.5000000000349,1.0866706519446049e-15
573.6000000000349,1.083400777108765e-15
573.700000000035,1.0801455594232652e-15
573.800000000035,1.0769049118972502e-15
573.900000000035,1.073678748180678e-15
574.000000000035,1.0704669825586942e-15
574.100000000035,1.0672695299460656e-15
574.2000000000351,1.064086305881672e-15
574.3000000000351,1.0609172265230486e-15
574.4000000000351,1.0577622086409905e-15
574.5000000000351,1.0546211696142054e-15
574.6000000000352,1.051494027424024e-15
574.7000000000352,1.0483807006491627e-15
574.8000000000352,1.04528110846054e-15
574.9000000000352,1.0421951706161425e-15
575.0000000000352,1.0391228074559444e-15
575.1000000000353,1.0360639398968783e-15
575.2000000000353,1.0330184894278554e-15
575.3000000000353,1.0299863781048343e-15
575.4000000000353,1.0269675285459428e-15
575.5000000000354,1.0239618639266435e-15
575.6000000000354,1.0209693079749519e-15
575.7000000000354,1.0179897849666985e-15
575.8000000000354,1.015023219720841e-15
575.9000000000354,1.0120695375948205e-15
576.0000000000355,1.0091286644799657e-15
576.1000000000355,1.0062005267969401e-15
576.2000000000355,1.0032850514912377e-15
576.3000000000355,1.000382166028719e-15
576.4000000000356,9.974917983911951e-16
576.5000000000356,9.94613877072051e-16
576.6000000000356,9.917483310719157e-16
576.7000000000356,9.888950898943734e-16
576.8000000000357,9.860540835417143e-16
576.9000000000357,9.832252425107321e-16
577.0000000000357,9.804084977885572e-16
577.1000000000357,9.776037808485345e-16
577.2000000000357,9.74811023646139e-16
577.3000000000358,9.720301586149321e-16
577.4000000000358,9.69261118662558e-16
577.5000000000358,9.66503837166777e-16
577.6000000000358,9.637582479715387e-16
577.7000000000359,9.610242853830931e-16
577.8000000000359,9.583018841661384e-16
577.9000000000359,9.555909795400072e-16
578.0000000000359,9.528915071748892e-16
578.100000000036,9.502034031880892e-16
578.200000000036,9.475266041403221e-16
578.300000000036,9.448610470320433e-16
578.400000000036,9.422066692998145e-16
578.500000000036,9.395634088127044e-16
578.6000000000361,9.36931203868722e-16
578.7000000000361,9.343099931912873e-16
578.8000000000361,9.316997159257328e-16
578.9000000000361,9.291003116358394e-16
579.0000000000362,9.26511720300406e-16
579.1000000000362,9.239338823098501e-16
579.2000000000362,9.213667384628424e-16
579.3000000000362,9.188102299629717e-16
579.4000000000362,9.162642984154422e-16
579.5000000000363,9.137288858238025e-16
579.6000000000363,9.11203934586705e-16
579.7000000000363,9.086893874946944e-16
579.8000000000363,9.061851877270301e-16
579.9000000000364,9.036912788485343e-16
580.0000000000364,9.012076048064726e-16
580.1000000000364,8.987341099274628e-16
580.2000000000364,8.962707389144125e-16
580.3000000000364,8.938174368434866e-16
580.4000000000365,8.913741491611006e-16
580.5000000000365,8.88940821680945e-16
580.6000000000365,8.865174005810352e-16
580.7000000000365,8.841038324007905e-16
580.8000000000366,8.817000640381383e-16
580.9000000000366,8.793060427466474e-16
581.0000000000366,8.769217161326859e-16
581.1000000000366,8.745470321526071e-16
581.2000000000367,8.721819391099607e-16
581.3000000000367,8.698263856527287e-16
581.4000000000367,8.674803207705895e-16
581.5000000000367,8.65143693792204e-16
581.6000000000367,8.628164543825296e-16
581.7000000000368,8.604985525401566e-16
581.8000000000368,8.581899385946704e-16
581.9000000000368,8.558905632040372e-16
582.0000000000368,8.53600377352015e-16
582.1000000000369,8.513193323455855e-16
582.2000000000369,8.49047379812413e-16
582.3000000000369,8.467844716983231e-16
582.4000000000369,8.445305602648073e-16
582.500000000037,8.422855980865479e-16
582.600000000037,8.400495380489671e-16
582.700000000037,8.378223333457979e-16
582.800000000037,8.356039374766757e-16
582.900000000037,8.333943042447543e-16
583.0000000000371,8.311933877543413e-16
583.1000000000371,8.290011424085552e-16
583.2000000000371,8.268175229070049e-16
583.3000000000371,8.24642484243489e-16
583.4000000000372,8.224759817037151e-16
583.5000000000372,8.203179708630422e-16
583.6000000000372,8.1816840758424e-16
583.7000000000372,8.160272480152712e-16
583.8000000000372,8.138944485870922e-16
583.9000000000373,8.117699660114732e-16
584.0000000000373,8.096537572788392e-16
584.1000000000373,8.075457796561282e-16
584.2000000000373,8.054459906846711e-16
584.3000000000374,8.033543481780878e-16
584.4000000000374,8.012708102202041e-16
584.5000000000374,7.991953351629854e-16
584.6000000000374,7.971278816244902e-16
584.7000000000374,7.95068408486841e-16
584.8000000000375,7.930168748942134e-16
584.9000000000375,7.90973240250842e-16
585.0000000000375,7.889374642190455e-16
585.1000000000375,7.869095067172683e-16
585.2000000000376,7.848893279181392e-16
585.3000000000376,7.828768882465474e-16
585.4000000000376,7.808721483777358e-16
585.5000000000376,7.788750692354103e-16
585.6000000000377,7.768856119898663e-16
585.7000000000377,7.749037380561308e-16
585.8000000000377,7.72929409092122e-16
585.9000000000377,7.709625869968232e-16
586.0000000000377,7.690032339084749e-16
586.1000000000378,7.670513122027806e-16
586.2000000000378,7.651067844911285e-16
586.3000000000378,7.631696136188301e-16
586.4000000000378,7.612397626633732e-16
586.5000000000379,7.593171949326886e-16
586.6000000000379,7.574018739634348e-16
586.7000000000379,7.55493763519295e-16
586.8000000000379,7.535928275892896e-16
586.900000000038,7.516990303861038e-16
587.000000000038,7.49812336344429e-16
587.100000000038,7.479327101193189e-16
587.200000000038,7.460601165845588e-16
587.300000000038,7.4419452083105e-16
587.4000000000381,7.423358881652079e-16
587.5000000000381,7.404841841073732e-16
587.6000000000381,7.386393743902368e-16
587.7000000000381,7.368014249572786e-16
587.8000000000382,7.349703019612203e-16
587.9000000000382,7.331459717624888e-16
588.0000000000382,7.313284009276957e-16
588.1000000000382,7.295175562281277e-16
588.2000000000382,7.277134046382512e-16
588.3000000000383,7.259159133342284e-16
588.4000000000383,7.241250496924467e-16
588.5000000000383,7.223407812880602e-16
588.6000000000383,7.205630758935441e-16
588.7000000000384,7.1879190147726e-16
588.8000000000384,7.170272262020358e-16
588.9000000000384,7.152690184237538e-16
589.0000000000384,7.135172466899548e-16
589.1000000000384,7.117718797384508e-16
589.2000000000385,7.100328864959508e-16
589.3000000000385,7.08300236076698e-16
589.4000000000385,7.065738977811183e-16
589.5000000000385,7.048538410944798e-16
589.6000000000386,7.031400356855639e-16
589.7000000000386,7.014324514053472e-16
589.8000000000386,6.99731058285695e-16
589.9000000000386,6.9803582653806465e-16
590.0000000000387,6.963467265522207e-16
590.1000000000387,6.946637288949598e-16
590.2000000000387,6.929868043088474e-16
590.3000000000387,6.913159237109638e-16
590.4000000000387,6.896510581916605e-16
590.5000000000388,6.879921790133282e-16
590.6000000000388,6.863392576091736e-16
590.7000000000388,6.846922655820066e-16
590.8000000000388,6.83051174703038e-16
590.9000000000389,6.81415956910687e-16
591.0000000000389,6.797865843093975e-16
591.1000000000389,6.78163029168466e-16
591.2000000000389,6.765452639208768e-16
591.300000000039,6.749332611621492e-16
591.400000000039,6.733269936491916e-16
591.500000000039,6.717264342991675e-16
591.600000000039,6.701315561883687e-16
591.700000000039,6.685423325510993e-16
591.8000000000391,6.669587367785668e-16
591.9000000000391,6.653807424177851e-16
592.0000000000391,6.638083231704831e-16
592.1000000000391,6.622414528920252e-16
592.2000000000392,6.606801055903384e-16
592.3000000000392,6.59124255424849e-16
592.4000000000392,6.575738767054281e-16
592.5000000000392,6.560289438913453e-16
592.6000000000392,6.544894315902299e-16
592.7000000000393,6.529553145570434e-16
592.8000000000393,6.514265676930562e-16
592.9000000000393,6.49903166044836e-16
593.0000000000393,6.48385084803243e-16
593.1000000000394,6.468722993024322e-16
593.2000000000394,6.453647850188657e-16
593.3000000000394,6.438625175703312e-16
593.4000000000394,6.423654727149697e-16
593.5000000000394,6.408736263503096e-16
593.6000000000395,6.393869545123096e-16
593.7000000000395,6.379054333744091e-16
593.8000000000395,6.364290392465854e-16
593.9000000000395,6.349577485744195e-16
594.0000000000396,6.33491537938168e-16
594.1000000000396,6.320303840518442e-16
594.2000000000396,6.305742637623046e-16
594.3000000000396,6.291231540483437e-16
594.4000000000397,6.276770320197956e-16
594.5000000000397,6.262358749166436e-16
594.6000000000397,6.247996601081348e-16
594.7000000000397,6.233683650919041e-16
594.8000000000397,6.219419674931032e-16
594.9000000000398,6.205204450635377e-16
595.0000000000398,6.191037756808104e-16
595.1000000000398,6.176919373474711e-16
595.2000000000398,6.162849081901739e-16
595.3000000000399,6.148826664588407e-16
595.4000000000399,6.134851905258298e-16
595.5000000000399,6.120924588851149e-16
595.6000000000399,6.107044501514654e-16
595.70000000004,6.093211430596371e-16
595.80000000004,6.079425164635674e-16
595.90000000004,6.065685493355778e-16
596.00000000004,6.051992207655808e-16
596.10000000004,6.038345099602949e-16
596.2000000000401,6.024743962424648e-16
596.3000000000401,6.011188590500875e-16
596.4000000000401,5.997678779356453e-16
596.5000000000401,5.984214325653433e-16
596.6000000000402,5.970795027183543e-16
596.7000000000402,5.957420682860678e-16
596.8000000000402,5.944091092713473e-16
596.9000000000402,5.930806057877906e-16
597.0000000000402,5.917565380589974e-16
597.1000000000403,5.904368864178424e-16
597.2000000000403,5.891216313057534e-16
597.3000000000403,5.878107532719954e-16
597.4000000000403,5.865042329729602e-16
597.5000000000404,5.85202051171461e-16
597.6000000000404,5.839041887360331e-16
597.7000000000404,5.826106266402389e-16
597.8000000000404,5.8132134596198e-16
597.9000000000404,5.800363278828115e-16
598.0000000000405,5.787555536872658e-16
598.1000000000405,5.774790047621768e-16
598.2000000000405,5.762066625960134e-16
598.3000000000405,5.749385087782151e-16
598.4000000000406,5.736745249985343e-16
598.5000000000406,5.724146930463829e-16
598.6000000000406,5.711589948101845e-16
598.7000000000406,5.699074122767294e-16
598.8000000000407,5.686599275305386e-16
598.9000000000407,5.67416522753228e-16
599.0000000000407,5.661771802228802e-16
599.1000000000407,5.6494188231342e-16
599.2000000000407,5.637106114939957e-16
599.3000000000408,5.624833503283632e-16
599.4000000000408,5.612600814742765e-16
599.5000000000408,5.600407876828811e-16
599.6000000000408,5.588254517981144e-16
599.7000000000409,5.576140567561077e-16
599.8000000000409,5.564065855845939e-16
599.9000000000409,5.552030214023213e-16
600.0000000000409,5.540033474184684e-16
